wavelength_nm,reflectance
350.0,0.055056
351.0,0.055060
352.0,0.055251
353.0,0.055413
354.0,0.055662
355.0,0.055882
356.0,0.056094
357.0,0.056341
358.0,0.056637
359.0,0.056907
360.0,0.057142
361.0,0.057391
362.0,0.057640
363.0,0.057890
364.0,0.058144
365.0,0.058406
366.0,0.058619
367.0,0.058817
368.0,0.059086
369.0,0.059408
370.0,0.059753
371.0,0.060089
372.0,0.060404
373.0,0.060765
374.0,0.061151
375.0,0.061507
376.0,0.061878
377.0,0.062257
378.0,0.062643
379.0,0.063060
380.0,0.063467
381.0,0.063872
382.0,0.064308
383.0,0.064807
384.0,0.065264
385.0,0.065675
386.0,0.066153
387.0,0.066567
388.0,0.066943
389.0,0.067337
390.0,0.067734
391.0,0.068131
392.0,0.068539
393.0,0.068978
394.0,0.069393
395.0,0.069792
396.0,0.070181
397.0,0.070549
398.0,0.070906
399.0,0.071245
400.0,0.071555
401.0,0.071878
402.0,0.072205
403.0,0.072538
404.0,0.072899
405.0,0.073282
406.0,0.073686
407.0,0.074105
408.0,0.074510
409.0,0.074921
410.0,0.075346
411.0,0.075764
412.0,0.076184
413.0,0.076604
414.0,0.077020
415.0,0.077452
416.0,0.077898
417.0,0.078352
418.0,0.078807
419.0,0.079262
420.0,0.079725
421.0,0.080199
422.0,0.080675
423.0,0.081135
424.0,0.081586
425.0,0.082061
426.0,0.082559
427.0,0.083073
428.0,0.083595
429.0,0.084134
430.0,0.084685
431.0,0.085236
432.0,0.085771
433.0,0.086292
434.0,0.086799
435.0,0.087293
436.0,0.087777
437.0,0.088287
438.0,0.088815
439.0,0.089330
440.0,0.089845
441.0,0.090362
442.0,0.090878
443.0,0.091388
444.0,0.091893
445.0,0.092398
446.0,0.092910
447.0,0.093423
448.0,0.093930
449.0,0.094429
450.0,0.094920
451.0,0.095409
452.0,0.095904
453.0,0.096412
454.0,0.096912
455.0,0.097408
456.0,0.097902
457.0,0.098388
458.0,0.098868
459.0,0.099338
460.0,0.099799
461.0,0.100258
462.0,0.100702
463.0,0.101138
464.0,0.101589
465.0,0.102020
466.0,0.102447
467.0,0.102883
468.0,0.103320
469.0,0.103757
470.0,0.104191
471.0,0.104618
472.0,0.105034
473.0,0.105443
474.0,0.105858
475.0,0.106295
476.0,0.106727
477.0,0.107150
478.0,0.107566
479.0,0.107986
480.0,0.108408
481.0,0.108829
482.0,0.109246
483.0,0.109678
484.0,0.110123
485.0,0.110577
486.0,0.111053
487.0,0.111541
488.0,0.112023
489.0,0.112489
490.0,0.112939
491.0,0.113386
492.0,0.113847
493.0,0.114330
494.0,0.114809
495.0,0.115279
496.0,0.115754
497.0,0.116244
498.0,0.116746
499.0,0.117256
500.0,0.117776
501.0,0.118303
502.0,0.118833
503.0,0.119366
504.0,0.119907
505.0,0.120437
506.0,0.120955
507.0,0.121487
508.0,0.122021
509.0,0.122553
510.0,0.123074
511.0,0.123610
512.0,0.124147
513.0,0.124687
514.0,0.125246
515.0,0.125791
516.0,0.126343
517.0,0.126924
518.0,0.127520
519.0,0.128108
520.0,0.128667
521.0,0.129209
522.0,0.129770
523.0,0.130345
524.0,0.130924
525.0,0.131501
526.0,0.132080
527.0,0.132674
528.0,0.133282
529.0,0.133886
530.0,0.134474
531.0,0.135062
532.0,0.135655
533.0,0.136270
534.0,0.136892
535.0,0.137494
536.0,0.138085
537.0,0.138672
538.0,0.139268
539.0,0.139875
540.0,0.140480
541.0,0.141087
542.0,0.141690
543.0,0.142278
544.0,0.142857
545.0,0.143435
546.0,0.144013
547.0,0.144599
548.0,0.145188
549.0,0.145770
550.0,0.146345
551.0,0.146921
552.0,0.147502
553.0,0.148086
554.0,0.148669
555.0,0.149234
556.0,0.149778
557.0,0.150327
558.0,0.150871
559.0,0.151420
560.0,0.151983
561.0,0.152541
562.0,0.153090
563.0,0.153634
564.0,0.154178
565.0,0.154720
566.0,0.155264
567.0,0.155806
568.0,0.156345
569.0,0.156864
570.0,0.157357
571.0,0.157819
572.0,0.158281
573.0,0.158747
574.0,0.159214
575.0,0.159673
576.0,0.160131
577.0,0.160593
578.0,0.161063
579.0,0.161534
580.0,0.162000
581.0,0.162453
582.0,0.162898
583.0,0.163341
584.0,0.163777
585.0,0.164209
586.0,0.164656
587.0,0.165129
588.0,0.165613
589.0,0.166095
590.0,0.166584
591.0,0.167029
592.0,0.167406
593.0,0.167771
594.0,0.168152
595.0,0.168556
596.0,0.168960
597.0,0.169334
598.0,0.169692
599.0,0.170054
600.0,0.170409
601.0,0.170753
602.0,0.171096
603.0,0.171449
604.0,0.171811
605.0,0.172165
606.0,0.172513
607.0,0.172868
608.0,0.173228
609.0,0.173581
610.0,0.173924
611.0,0.174269
612.0,0.174617
613.0,0.174964
614.0,0.175308
615.0,0.175655
616.0,0.175998
617.0,0.176342
618.0,0.176696
619.0,0.177048
620.0,0.177396
621.0,0.177742
622.0,0.178090
623.0,0.178447
624.0,0.178813
625.0,0.179184
626.0,0.179568
627.0,0.179958
628.0,0.180351
629.0,0.180744
630.0,0.181101
631.0,0.181431
632.0,0.181782
633.0,0.182138
634.0,0.182495
635.0,0.182851
636.0,0.183207
637.0,0.183556
638.0,0.183901
639.0,0.184248
640.0,0.184589
641.0,0.184935
642.0,0.185288
643.0,0.185650
644.0,0.185998
645.0,0.186356
646.0,0.186745
647.0,0.187161
648.0,0.187547
649.0,0.187888
650.0,0.188207
651.0,0.188533
652.0,0.188882
653.0,0.189247
654.0,0.189583
655.0,0.189930
656.0,0.190296
657.0,0.190658
658.0,0.191003
659.0,0.191299
660.0,0.191587
661.0,0.191899
662.0,0.192207
663.0,0.192504
664.0,0.192799
665.0,0.193108
666.0,0.193419
667.0,0.193731
668.0,0.194051
669.0,0.194386
670.0,0.194727
671.0,0.195076
672.0,0.195435
673.0,0.195805
674.0,0.196181
675.0,0.196568
676.0,0.196964
677.0,0.197362
678.0,0.197766
679.0,0.198193
680.0,0.198633
681.0,0.199080
682.0,0.199536
683.0,0.200010
684.0,0.200504
685.0,0.201031
686.0,0.201614
687.0,0.202285
688.0,0.203023
689.0,0.203692
690.0,0.204228
691.0,0.204787
692.0,0.205373
693.0,0.205972
694.0,0.206585
695.0,0.207187
696.0,0.207749
697.0,0.208280
698.0,0.208832
699.0,0.209411
700.0,0.210024
701.0,0.210637
702.0,0.211232
703.0,0.211791
704.0,0.212322
705.0,0.212874
706.0,0.213444
707.0,0.214021
708.0,0.214575
709.0,0.215117
710.0,0.215675
711.0,0.216244
712.0,0.216794
713.0,0.217368
714.0,0.217970
715.0,0.218592
716.0,0.219214
717.0,0.219850
718.0,0.220544
719.0,0.221263
720.0,0.221952
721.0,0.222590
722.0,0.223156
723.0,0.223694
724.0,0.224283
725.0,0.224963
726.0,0.225640
727.0,0.226283
728.0,0.226884
729.0,0.227489
730.0,0.228136
731.0,0.228790
732.0,0.229405
733.0,0.229958
734.0,0.230502
735.0,0.231072
736.0,0.231673
737.0,0.232273
738.0,0.232862
739.0,0.233418
740.0,0.233958
741.0,0.234509
742.0,0.235059
743.0,0.235593
744.0,0.236110
745.0,0.236633
746.0,0.237165
747.0,0.237704
748.0,0.238236
749.0,0.238748
750.0,0.239266
751.0,0.239789
752.0,0.240301
753.0,0.240806
754.0,0.241310
755.0,0.241812
756.0,0.242304
757.0,0.242819
758.0,0.243319
770.0,0.249017
771.0,0.249424
772.0,0.249852
773.0,0.250285
774.0,0.250720
775.0,0.251161
776.0,0.251608
777.0,0.252056
778.0,0.252494
779.0,0.252932
780.0,0.253377
781.0,0.253826
782.0,0.254271
783.0,0.254721
784.0,0.255172
785.0,0.255622
786.0,0.256081
787.0,0.256537
788.0,0.256992
789.0,0.257454
790.0,0.257904
791.0,0.258331
792.0,0.258736
793.0,0.259141
794.0,0.259562
795.0,0.259988
796.0,0.260414
797.0,0.260865
798.0,0.261305
799.0,0.261732
800.0,0.262160
801.0,0.262585
802.0,0.263000
803.0,0.263412
804.0,0.263840
805.0,0.264252
806.0,0.264653
807.0,0.265057
808.0,0.265477
809.0,0.265901
810.0,0.266323
811.0,0.266733
812.0,0.267123
813.0,0.267501
814.0,0.267888
815.0,0.268302
816.0,0.268701
817.0,0.269108
818.0,0.269535
819.0,0.269968
820.0,0.270354
821.0,0.270740
822.0,0.271153
823.0,0.271543
824.0,0.271958
825.0,0.272366
826.0,0.272733
827.0,0.273109
828.0,0.273473
829.0,0.273842
830.0,0.274235
831.0,0.274636
832.0,0.275017
833.0,0.275379
834.0,0.275751
835.0,0.276122
836.0,0.276482
837.0,0.276835
838.0,0.277201
839.0,0.277547
840.0,0.277885
841.0,0.278234
842.0,0.278566
843.0,0.278927
844.0,0.279300
845.0,0.279639
846.0,0.279982
847.0,0.280331
848.0,0.280689
849.0,0.281053
850.0,0.281387
851.0,0.281735
852.0,0.282109
853.0,0.282419
854.0,0.282748
855.0,0.283109
856.0,0.283485
857.0,0.283850
858.0,0.284192
859.0,0.284516
860.0,0.284837
861.0,0.285163
862.0,0.285491
863.0,0.285816
864.0,0.286138
865.0,0.286469
866.0,0.286799
867.0,0.287131
868.0,0.287491
869.0,0.287847
870.0,0.288190
871.0,0.288515
872.0,0.288830
873.0,0.289178
874.0,0.289533
875.0,0.289855
876.0,0.290179
877.0,0.290526
878.0,0.290881
879.0,0.291212
880.0,0.291553
881.0,0.291897
882.0,0.292241
883.0,0.292585
884.0,0.292930
885.0,0.293264
886.0,0.293580
887.0,0.293886
888.0,0.294232
889.0,0.294578
890.0,0.294891
891.0,0.295233
892.0,0.295556
893.0,0.295822
894.0,0.296034
895.0,0.296308
896.0,0.296578
897.0,0.296799
898.0,0.296975
899.0,0.297226
900.0,0.297623
901.0,0.298085
902.0,0.298421
903.0,0.298754
904.0,0.299068
905.0,0.299373
906.0,0.299699
907.0,0.299905
908.0,0.300085
909.0,0.300330
910.0,0.300578
911.0,0.300871
912.0,0.301158
913.0,0.301420
914.0,0.301786
915.0,0.302110
916.0,0.302434
917.0,0.302846
918.0,0.303246
919.0,0.303634
920.0,0.304011
921.0,0.304381
922.0,0.304716
923.0,0.304972
924.0,0.305176
925.0,0.305398
926.0,0.305523
927.0,0.305526
928.0,0.305369
929.0,0.305029
930.0,0.304637
931.0,0.303939
932.0,0.302732
933.0,0.301461
934.0,0.300040
935.0,0.299028
936.0,0.298908
937.0,0.299156
938.0,0.300055
939.0,0.300940
940.0,0.301450
941.0,0.302448
942.0,0.303043
943.0,0.303238
944.0,0.303356
945.0,0.303440
946.0,0.303345
947.0,0.303594
948.0,0.304637
949.0,0.304772
950.0,0.304887
951.0,0.305317
952.0,0.305854
953.0,0.306485
954.0,0.306960
955.0,0.307493
956.0,0.308502
957.0,0.308976
958.0,0.309403
959.0,0.309937
960.0,0.310265
961.0,0.310858
962.0,0.311493
963.0,0.312131
964.0,0.313046
965.0,0.313901
966.0,0.314597
967.0,0.315171
968.0,0.315781
969.0,0.316173
970.0,0.316474
971.0,0.316812
972.0,0.317140
973.0,0.317436
974.0,0.317755
975.0,0.318074
976.0,0.318181
977.0,0.318467
978.0,0.318897
979.0,0.319283
980.0,0.319586
981.0,0.319955
982.0,0.320396
983.0,0.320819
984.0,0.321113
985.0,0.321445
986.0,0.321771
987.0,0.322035
988.0,0.322440
989.0,0.322642
990.0,0.322760
991.0,0.323094
992.0,0.323447
993.0,0.323694
994.0,0.323859
995.0,0.324081
996.0,0.324421
997.0,0.324806
998.0,0.325051
999.0,0.325087
1000.0,0.325457
1001.0,0.325743
1002.0,0.326071
1003.0,0.326400
1004.0,0.326676
1005.0,0.327025
1006.0,0.327374
1007.0,0.327710
1008.0,0.328032
1009.0,0.328378
1010.0,0.328663
1011.0,0.328897
1012.0,0.329103
1013.0,0.329375
1014.0,0.329648
1015.0,0.329909
1016.0,0.330277
1017.0,0.330613
1018.0,0.330919
1019.0,0.331257
1020.0,0.331573
1021.0,0.331876
1022.0,0.332185
1023.0,0.332482
1024.0,0.332792
1025.0,0.333051
1026.0,0.333269
1027.0,0.333503
1028.0,0.333775
1029.0,0.334108
1030.0,0.334504
1031.0,0.334863
1032.0,0.335210
1033.0,0.335549
1034.0,0.335812
1035.0,0.336110
1036.0,0.336402
1037.0,0.336601
1038.0,0.336816
1039.0,0.337057
1040.0,0.337283
1041.0,0.337575
1042.0,0.337924
1043.0,0.338281
1044.0,0.338639
1045.0,0.338926
1046.0,0.339127
1047.0,0.339332
1048.0,0.339552
1049.0,0.339806
1050.0,0.340161
1051.0,0.340491
1052.0,0.340822
1053.0,0.341134
1054.0,0.341358
1055.0,0.341590
1056.0,0.341807
1057.0,0.342050
1058.0,0.342335
1059.0,0.342662
1060.0,0.342990
1061.0,0.343273
1062.0,0.343501
1063.0,0.343704
1064.0,0.343941
1065.0,0.344194
1066.0,0.344461
1067.0,0.344806
1068.0,0.345111
1069.0,0.345352
1070.0,0.345607
1071.0,0.345854
1072.0,0.346098
1073.0,0.346343
1074.0,0.346603
1075.0,0.346899
1076.0,0.347139
1077.0,0.347362
1078.0,0.347629
1079.0,0.347888
1080.0,0.348104
1081.0,0.348347
1082.0,0.348659
1083.0,0.348929
1084.0,0.349169
1085.0,0.349414
1086.0,0.349607
1087.0,0.349814
1088.0,0.350110
1089.0,0.350375
1090.0,0.350636
1091.0,0.350856
1092.0,0.351054
1093.0,0.351267
1094.0,0.351486
1095.0,0.351756
1096.0,0.352001
1097.0,0.352206
1098.0,0.352419
1099.0,0.352602
1100.0,0.352794
1101.0,0.353057
1102.0,0.353290
1103.0,0.353498
1104.0,0.353694
1105.0,0.353774
1106.0,0.353888
1107.0,0.354013
1108.0,0.354234
1109.0,0.354480
1110.0,0.354488
1111.0,0.354506
1112.0,0.354368
1113.0,0.354239
1114.0,0.354322
1115.0,0.354307
1116.0,0.353935
1146.0,0.354495
1147.0,0.354480
1148.0,0.354594
1149.0,0.354709
1150.0,0.354877
1151.0,0.355114
1152.0,0.355237
1153.0,0.355436
1154.0,0.355890
1155.0,0.356221
1156.0,0.356273
1157.0,0.356449
1158.0,0.356762
1159.0,0.357015
1160.0,0.357197
1161.0,0.357409
1162.0,0.357643
1163.0,0.357839
1164.0,0.357973
1165.0,0.358112
1166.0,0.358289
1167.0,0.358416
1168.0,0.358518
1169.0,0.358738
1170.0,0.358928
1171.0,0.358955
1172.0,0.359022
1173.0,0.359224
1174.0,0.359377
1175.0,0.359461
1176.0,0.359566
1177.0,0.359717
1178.0,0.359841
1179.0,0.359940
1180.0,0.360069
1181.0,0.360224
1182.0,0.360326
1183.0,0.360435
1184.0,0.360644
1185.0,0.360832
1186.0,0.360918
1187.0,0.361035
1188.0,0.361257
1189.0,0.361423
1190.0,0.361487
1191.0,0.361600
1192.0,0.361724
1193.0,0.361833
1194.0,0.361957
1195.0,0.362143
1196.0,0.362328
1197.0,0.362479
1198.0,0.362642
1199.0,0.362862
1200.0,0.363072
1201.0,0.363227
1202.0,0.363412
1203.0,0.363670
1204.0,0.363895
1205.0,0.364057
1206.0,0.364260
1207.0,0.364501
1208.0,0.364712
1209.0,0.364912
1210.0,0.365147
1211.0,0.365396
1212.0,0.365606
1213.0,0.365841
1214.0,0.366122
1215.0,0.366368
1216.0,0.366596
1217.0,0.366868
1218.0,0.367160
1219.0,0.367447
1220.0,0.367723
1221.0,0.368014
1222.0,0.368332
1223.0,0.368636
1224.0,0.368925
1225.0,0.369228
1226.0,0.369545
1227.0,0.369854
1228.0,0.370175
1229.0,0.370493
1230.0,0.370788
1231.0,0.371076
1232.0,0.371385
1233.0,0.371691
1234.0,0.371989
1235.0,0.372292
1236.0,0.372614
1237.0,0.372948
1238.0,0.373244
1239.0,0.373541
1240.0,0.373849
1241.0,0.374129
1242.0,0.374405
1243.0,0.374712
1244.0,0.375024
1245.0,0.375320
1246.0,0.375612
1247.0,0.375935
1248.0,0.376245
1249.0,0.376517
1250.0,0.376786
1251.0,0.377096
1252.0,0.377412
1253.0,0.377699
1254.0,0.377994
1255.0,0.378307
1256.0,0.378616
1257.0,0.378886
1258.0,0.379146
1259.0,0.379423
1260.0,0.379704
1261.0,0.379957
1262.0,0.380171
1263.0,0.380423
1264.0,0.380703
1265.0,0.380946
1266.0,0.381209
1267.0,0.381486
1268.0,0.381705
1269.0,0.381903
1270.0,0.382087
1271.0,0.382313
1272.0,0.382536
1273.0,0.382706
1274.0,0.382885
1275.0,0.383096
1276.0,0.383294
1277.0,0.383470
1278.0,0.383641
1279.0,0.383818
1280.0,0.384012
1281.0,0.384203
1282.0,0.384377
1283.0,0.384560
1284.0,0.384758
1285.0,0.384980
1286.0,0.385169
1287.0,0.385340
1288.0,0.385520
1289.0,0.385659
1290.0,0.385797
1291.0,0.385971
1292.0,0.386160
1293.0,0.386299
1294.0,0.386438
1295.0,0.386621
1296.0,0.386755
1297.0,0.386860
1298.0,0.386979
1299.0,0.387065
1300.0,0.387148
1301.0,0.387249
1302.0,0.387331
1303.0,0.387396
1304.0,0.387450
1305.0,0.387513
1306.0,0.387564
1307.0,0.387584
1308.0,0.387597
1309.0,0.387600
1310.0,0.387549
1311.0,0.387525
1312.0,0.387556
1313.0,0.387539
1314.0,0.387475
1315.0,0.387453
1316.0,0.387396
1317.0,0.387234
1318.0,0.387118
1319.0,0.387099
1320.0,0.387021
1321.0,0.386880
1322.0,0.386759
1323.0,0.386603
1324.0,0.386363
1325.0,0.386125
1326.0,0.385877
1327.0,0.385614
1328.0,0.385337
1329.0,0.385022
1330.0,0.384776
1331.0,0.384472
1332.0,0.384078
1333.0,0.383704
1334.0,0.383342
1335.0,0.383021
1336.0,0.382719
1337.0,0.382378
1338.0,0.382084
1339.0,0.381903
1340.0,0.381698
1341.0,0.381180
1342.0,0.380691
1343.0,0.380325
1344.0,0.379956
1345.0,0.379820
1346.0,0.379524
1347.0,0.378831
1348.0,0.378075
1349.0,0.377595
1350.0,0.376872
1450.0,0.298390
1451.0,0.298565
1452.0,0.299401
1453.0,0.300040
1454.0,0.300311
1455.0,0.300421
1456.0,0.300519
1457.0,0.300674
1458.0,0.301244
1459.0,0.301673
1460.0,0.301742
1461.0,0.301886
1462.0,0.302170
1463.0,0.302288
1464.0,0.302263
1465.0,0.302584
1466.0,0.303005
1467.0,0.303228
1468.0,0.303655
1469.0,0.304362
1470.0,0.304968
1471.0,0.305514
1472.0,0.306129
1473.0,0.306804
1474.0,0.307343
1475.0,0.307772
1476.0,0.308302
1477.0,0.308813
1478.0,0.309402
1479.0,0.310138
1480.0,0.310931
1481.0,0.311805
1482.0,0.312706
1483.0,0.313512
1484.0,0.314342
1485.0,0.315336
1486.0,0.316235
1487.0,0.316987
1488.0,0.317757
1489.0,0.318517
1490.0,0.319245
1491.0,0.319976
1492.0,0.320666
1493.0,0.321336
1494.0,0.321999
1495.0,0.322629
1496.0,0.323253
1497.0,0.323844
1498.0,0.324411
1499.0,0.324985
1500.0,0.325578
1501.0,0.326193
1502.0,0.326818
1503.0,0.327460
1504.0,0.328089
1505.0,0.328741
1506.0,0.329375
1507.0,0.329952
1508.0,0.330542
1509.0,0.331145
1510.0,0.331729
1511.0,0.332315
1512.0,0.332904
1513.0,0.333464
1514.0,0.334042
1515.0,0.334624
1516.0,0.335183
1517.0,0.335777
1518.0,0.336380
1519.0,0.336933
1520.0,0.337488
1521.0,0.338055
1522.0,0.338586
1523.0,0.339099
1524.0,0.339622
1525.0,0.340147
1526.0,0.340645
1527.0,0.341137
1528.0,0.341635
1529.0,0.342112
1530.0,0.342584
1531.0,0.343044
1532.0,0.343495
1533.0,0.343981
1534.0,0.344439
1535.0,0.344861
1536.0,0.345327
1537.0,0.345768
1538.0,0.346171
1539.0,0.346616
1540.0,0.347049
1541.0,0.347454
1542.0,0.347874
1543.0,0.348295
1544.0,0.348725
1545.0,0.349161
1546.0,0.349557
1547.0,0.349933
1548.0,0.350336
1549.0,0.350753
1550.0,0.351142
1551.0,0.351520
1552.0,0.351917
1553.0,0.352308
1554.0,0.352670
1555.0,0.353032
1556.0,0.353409
1557.0,0.353771
1558.0,0.354103
1559.0,0.354455
1560.0,0.354840
1561.0,0.355189
1562.0,0.355493
1563.0,0.355815
1564.0,0.356170
1565.0,0.356511
1566.0,0.356831
1567.0,0.357164
1568.0,0.357498
1569.0,0.357821
1570.0,0.358150
1571.0,0.358461
1572.0,0.358758
1573.0,0.359056
1574.0,0.359375
1575.0,0.359721
1576.0,0.360055
1577.0,0.360373
1578.0,0.360699
1579.0,0.361015
1580.0,0.361319
1581.0,0.361630
1582.0,0.361915
1583.0,0.362204
1584.0,0.362523
1585.0,0.362850
1586.0,0.363209
1587.0,0.363553
1588.0,0.363832
1589.0,0.364152
1590.0,0.364538
1591.0,0.364889
1592.0,0.365231
1593.0,0.365614
1594.0,0.365988
1595.0,0.366320
1596.0,0.366678
1597.0,0.367091
1598.0,0.367506
1599.0,0.367878
1600.0,0.368250
1601.0,0.368654
1602.0,0.369054
1603.0,0.369453
1604.0,0.369858
1605.0,0.370249
1606.0,0.370628
1607.0,0.370987
1608.0,0.371333
1609.0,0.371711
1610.0,0.372088
1611.0,0.372398
1612.0,0.372730
1613.0,0.373113
1614.0,0.373448
1615.0,0.373755
1616.0,0.374097
1617.0,0.374440
1618.0,0.374747
1619.0,0.375051
1620.0,0.375368
1621.0,0.375676
1622.0,0.375974
1623.0,0.376265
1624.0,0.376551
1625.0,0.376819
1626.0,0.377075
1627.0,0.377344
1628.0,0.377599
1629.0,0.377845
1630.0,0.378120
1631.0,0.378373
1632.0,0.378579
1633.0,0.378794
1634.0,0.379031
1635.0,0.379234
1636.0,0.379419
1637.0,0.379628
1638.0,0.379791
1639.0,0.379926
1640.0,0.380073
1641.0,0.380198
1642.0,0.380338
1643.0,0.380493
1644.0,0.380604
1645.0,0.380686
1646.0,0.380764
1647.0,0.380834
1648.0,0.380898
1649.0,0.380974
1650.0,0.380997
1651.0,0.380947
1652.0,0.380935
1653.0,0.380951
1654.0,0.380897
1655.0,0.380827
1656.0,0.380800
1657.0,0.380746
1658.0,0.380663
1659.0,0.380570
1660.0,0.380470
1661.0,0.380364
1662.0,0.380287
1663.0,0.380232
1664.0,0.380146
1665.0,0.380057
1666.0,0.379988
1667.0,0.379889
1668.0,0.379799
1669.0,0.379743
1670.0,0.379680
1671.0,0.379611
1672.0,0.379564
1673.0,0.379548
1674.0,0.379523
1675.0,0.379475
1676.0,0.379437
1677.0,0.379431
1678.0,0.379411
1679.0,0.379351
1680.0,0.379317
1681.0,0.379314
1682.0,0.379304
1683.0,0.379296
1684.0,0.379240
1685.0,0.379131
1686.0,0.379062
1687.0,0.379046
1688.0,0.379006
1689.0,0.378950
1690.0,0.378874
1691.0,0.378758
1692.0,0.378676
1693.0,0.378617
1694.0,0.378521
1695.0,0.378448
1696.0,0.378413
1697.0,0.378353
1698.0,0.378259
1699.0,0.378156
1700.0,0.378057
1701.0,0.377969
1702.0,0.377925
1703.0,0.377896
1704.0,0.377817
1705.0,0.377734
1706.0,0.377659
1707.0,0.377549
1708.0,0.377414
1709.0,0.377301
1710.0,0.377208
1711.0,0.377086
1712.0,0.376951
1713.0,0.376797
1714.0,0.376603
1715.0,0.376402
1716.0,0.376179
1717.0,0.375984
1718.0,0.375815
1719.0,0.375636
1720.0,0.375541
1721.0,0.375457
1722.0,0.375315
1723.0,0.375219
1724.0,0.375074
1725.0,0.374880
1726.0,0.374834
1727.0,0.374814
1728.0,0.374763
1729.0,0.374789
1730.0,0.374767
1731.0,0.374671
1732.0,0.374677
1733.0,0.374697
1734.0,0.374626
1735.0,0.374587
1736.0,0.374708
1737.0,0.374729
1738.0,0.374578
1739.0,0.374506
1740.0,0.374441
1741.0,0.374305
1742.0,0.374232
1743.0,0.374184
1744.0,0.374043
1745.0,0.373872
1746.0,0.373777
1747.0,0.373667
1748.0,0.373439
1749.0,0.373230
1750.0,0.373101
1751.0,0.372963
1752.0,0.372791
1753.0,0.372603
1754.0,0.372435
1755.0,0.372248
1756.0,0.371953
1757.0,0.371764
1758.0,0.371635
1759.0,0.371418
1760.0,0.371246
1761.0,0.371115
1762.0,0.370847
1763.0,0.370585
1764.0,0.370448
1765.0,0.370243
1766.0,0.370004
1767.0,0.369909
1768.0,0.369828
1769.0,0.369633
1770.0,0.369440
1771.0,0.369257
1772.0,0.369051
1773.0,0.368930
1774.0,0.368831
1775.0,0.368657
1776.0,0.368457
