wavelength_nm,reflectance
414.0,0.049496
415.0,0.049497
416.0,0.049498
417.0,0.049499
418.0,0.049501
419.0,0.049502
420.0,0.049504
421.0,0.049864
422.0,0.050233
423.0,0.050618
424.0,0.051014
425.0,0.051363
426.0,0.051594
427.0,0.051670
428.0,0.051686
429.0,0.051772
430.0,0.052025
431.0,0.052408
432.0,0.052849
433.0,0.053292
434.0,0.053730
435.0,0.054169
436.0,0.054607
437.0,0.055000
438.0,0.055295
439.0,0.055462
440.0,0.055556
441.0,0.055655
442.0,0.055813
443.0,0.055987
444.0,0.056108
445.0,0.056137
446.0,0.056140
447.0,0.056213
448.0,0.056417
449.0,0.056677
450.0,0.056889
451.0,0.056978
452.0,0.057005
453.0,0.057062
454.0,0.057214
455.0,0.057405
456.0,0.057549
457.0,0.057586
458.0,0.057554
459.0,0.057516
460.0,0.057517
461.0,0.057538
462.0,0.057540
463.0,0.057499
464.0,0.057437
465.0,0.057389
466.0,0.057380
467.0,0.057405
468.0,0.057449
469.0,0.057505
470.0,0.057590
471.0,0.057727
472.0,0.057923
473.0,0.058123
474.0,0.058255
475.0,0.058269
476.0,0.058203
477.0,0.058118
478.0,0.058071
479.0,0.058093
480.0,0.058214
481.0,0.058442
482.0,0.058717
483.0,0.058959
484.0,0.059107
485.0,0.059176
486.0,0.059196
487.0,0.059198
488.0,0.059202
489.0,0.059229
490.0,0.059296
491.0,0.059410
492.0,0.059577
493.0,0.059795
494.0,0.060025
495.0,0.060221
496.0,0.060351
497.0,0.060445
498.0,0.060547
499.0,0.060700
500.0,0.060941
501.0,0.061305
502.0,0.061806
503.0,0.062379
504.0,0.062938
505.0,0.063428
506.0,0.063928
507.0,0.064547
508.0,0.065366
509.0,0.066340
510.0,0.067396
511.0,0.068483
512.0,0.069650
513.0,0.070970
514.0,0.072498
515.0,0.074212
516.0,0.076073
517.0,0.078053
518.0,0.080159
519.0,0.082411
520.0,0.084812
521.0,0.087304
522.0,0.089815
523.0,0.092288
524.0,0.094738
525.0,0.097196
526.0,0.099674
527.0,0.102106
528.0,0.104406
529.0,0.106509
530.0,0.108423
531.0,0.110176
532.0,0.111794
533.0,0.113289
534.0,0.114672
535.0,0.115951
536.0,0.117125
537.0,0.118188
538.0,0.119133
539.0,0.119943
540.0,0.120597
541.0,0.121095
542.0,0.121510
543.0,0.121933
544.0,0.122431
545.0,0.122960
546.0,0.123448
547.0,0.123847
548.0,0.124189
549.0,0.124531
550.0,0.124905
551.0,0.125261
552.0,0.125525
553.0,0.125637
554.0,0.125578
555.0,0.125340
556.0,0.124920
557.0,0.124334
558.0,0.123600
559.0,0.122734
560.0,0.121730
561.0,0.120578
562.0,0.119276
563.0,0.117853
564.0,0.116350
565.0,0.114796
566.0,0.113195
567.0,0.111544
568.0,0.109840
569.0,0.108079
570.0,0.106258
571.0,0.104388
572.0,0.102533
573.0,0.100769
574.0,0.099156
575.0,0.097679
576.0,0.096304
577.0,0.095004
578.0,0.093767
579.0,0.092589
580.0,0.091466
581.0,0.090415
582.0,0.089453
583.0,0.088596
584.0,0.087838
585.0,0.087170
586.0,0.086574
587.0,0.086004
588.0,0.085405
589.0,0.084748
590.0,0.084100
591.0,0.083555
592.0,0.083177
593.0,0.082922
594.0,0.082717
595.0,0.082503
596.0,0.082268
597.0,0.082010
598.0,0.081732
599.0,0.081444
600.0,0.081159
601.0,0.080880
602.0,0.080584
603.0,0.080235
604.0,0.079810
605.0,0.079324
606.0,0.078798
607.0,0.078254
608.0,0.077697
609.0,0.077130
610.0,0.076557
611.0,0.075991
612.0,0.075449
613.0,0.074937
614.0,0.074430
615.0,0.073894
616.0,0.073307
617.0,0.072704
618.0,0.072129
619.0,0.071619
620.0,0.071164
621.0,0.070743
622.0,0.070343
623.0,0.069974
624.0,0.069652
625.0,0.069393
626.0,0.069199
627.0,0.069071
628.0,0.069003
629.0,0.068953
630.0,0.068873
631.0,0.068731
632.0,0.068562
633.0,0.068420
634.0,0.068335
635.0,0.068252
636.0,0.068092
637.0,0.067794
638.0,0.067355
639.0,0.066787
640.0,0.066114
641.0,0.065401
642.0,0.064723
643.0,0.064134
644.0,0.063597
645.0,0.063054
646.0,0.062466
647.0,0.061884
648.0,0.061384
649.0,0.061015
650.0,0.060747
651.0,0.060524
652.0,0.060302
653.0,0.060066
654.0,0.059811
655.0,0.059536
656.0,0.059257
657.0,0.058996
658.0,0.058768
659.0,0.058554
660.0,0.058328
661.0,0.058072
662.0,0.057788
663.0,0.057486
664.0,0.057180
665.0,0.056898
666.0,0.056675
667.0,0.056528
668.0,0.056420
669.0,0.056299
670.0,0.056133
671.0,0.055970
672.0,0.055877
673.0,0.055903
674.0,0.056016
675.0,0.056165
676.0,0.056310
677.0,0.056449
678.0,0.056594
679.0,0.056755
680.0,0.056954
681.0,0.057213
682.0,0.057549
683.0,0.057946
684.0,0.058381
685.0,0.058854
686.0,0.059453
687.0,0.060291
688.0,0.061468
689.0,0.063034
690.0,0.065030
691.0,0.067509
692.0,0.070584
693.0,0.074384
694.0,0.079014
695.0,0.084488
696.0,0.090800
697.0,0.097926
698.0,0.105783
699.0,0.114272
700.0,0.123296
701.0,0.132761
702.0,0.142573
703.0,0.152646
704.0,0.162916
705.0,0.173332
706.0,0.183842
707.0,0.194405
708.0,0.204983
709.0,0.215545
710.0,0.226081
711.0,0.236588
712.0,0.247058
713.0,0.257474
714.0,0.267813
715.0,0.278055
716.0,0.288183
717.0,0.298182
718.0,0.308026
719.0,0.317671
720.0,0.327062
721.0,0.336160
722.0,0.344979
723.0,0.353546
724.0,0.361870
725.0,0.369892
726.0,0.377535
727.0,0.384743
728.0,0.391537
729.0,0.397961
730.0,0.404052
731.0,0.409819
732.0,0.415267
733.0,0.420394
734.0,0.425182
735.0,0.429607
736.0,0.433662
737.0,0.437388
738.0,0.440839
739.0,0.444062
740.0,0.447057
741.0,0.449815
742.0,0.452331
743.0,0.454616
744.0,0.456686
745.0,0.458559
746.0,0.460261
747.0,0.461823
748.0,0.463266
749.0,0.464590
750.0,0.465787
751.0,0.466851
752.0,0.467782
753.0,0.468579
754.0,0.469252
755.0,0.469837
756.0,0.470380
757.0,0.470911
758.0,0.471407
759.0,0.471832
760.0,0.472163
761.0,0.472431
762.0,0.472681
763.0,0.472947
764.0,0.473212
765.0,0.473449
766.0,0.473637
767.0,0.473784
768.0,0.473908
769.0,0.474021
770.0,0.474118
771.0,0.474192
772.0,0.474236
773.0,0.474266
774.0,0.474299
775.0,0.474348
776.0,0.474404
777.0,0.474452
778.0,0.474481
779.0,0.474497
780.0,0.474509
781.0,0.474528
782.0,0.474559
783.0,0.474609
784.0,0.474682
785.0,0.474764
786.0,0.474841
787.0,0.474901
788.0,0.474948
789.0,0.474988
790.0,0.475028
791.0,0.475063
792.0,0.475090
793.0,0.475103
794.0,0.475108
795.0,0.475107
796.0,0.475105
797.0,0.475104
798.0,0.475105
799.0,0.475110
800.0,0.475117
801.0,0.475127
802.0,0.475135
803.0,0.475128
804.0,0.475090
805.0,0.475013
806.0,0.474929
807.0,0.474876
808.0,0.474883
809.0,0.474935
810.0,0.475004
811.0,0.475066
812.0,0.475103
813.0,0.475101
814.0,0.475054
815.0,0.474996
816.0,0.474970
817.0,0.475004
818.0,0.475057
819.0,0.475072
820.0,0.475014
821.0,0.474928
822.0,0.474879
823.0,0.474914
824.0,0.475004
825.0,0.475101
826.0,0.475166
827.0,0.475202
828.0,0.475222
829.0,0.475236
830.0,0.475250
831.0,0.475269
832.0,0.475293
833.0,0.475303
834.0,0.475278
835.0,0.475205
836.0,0.475119
837.0,0.475064
838.0,0.475072
839.0,0.475125
840.0,0.475195
841.0,0.475254
842.0,0.475291
843.0,0.475298
844.0,0.475277
845.0,0.475267
846.0,0.475317
847.0,0.475453
848.0,0.475602
849.0,0.475669
850.0,0.475591
851.0,0.475436
852.0,0.475304
853.0,0.475270
854.0,0.475300
855.0,0.475335
856.0,0.475331
857.0,0.475296
858.0,0.475255
859.0,0.475226
860.0,0.475203
861.0,0.475174
862.0,0.475131
863.0,0.475085
864.0,0.475053
865.0,0.475045
866.0,0.475044
867.0,0.475032
868.0,0.474992
869.0,0.474930
870.0,0.474859
871.0,0.474789
872.0,0.474733
873.0,0.474699
874.0,0.474693
875.0,0.474690
876.0,0.474657
877.0,0.474577
878.0,0.474481
879.0,0.474412
880.0,0.474402
881.0,0.474435
882.0,0.474483
883.0,0.474519
884.0,0.474519
885.0,0.474462
886.0,0.474344
887.0,0.474228
888.0,0.474199
889.0,0.474304
890.0,0.474464
891.0,0.474561
892.0,0.474516
893.0,0.474383
894.0,0.474250
895.0,0.474189
896.0,0.474196
897.0,0.474252
898.0,0.474339
899.0,0.474440
900.0,0.474544
901.0,0.474631
902.0,0.474663
903.0,0.474597
904.0,0.474420
905.0,0.474232
906.0,0.474165
907.0,0.474301
908.0,0.474542
909.0,0.474740
910.0,0.474784
911.0,0.474699
912.0,0.474546
913.0,0.474377
914.0,0.474217
915.0,0.474082
916.0,0.473989
917.0,0.473954
918.0,0.473993
919.0,0.474103
920.0,0.474203
921.0,0.474196
922.0,0.474019
923.0,0.473769
924.0,0.473578
925.0,0.473535
926.0,0.473560
927.0,0.473528
928.0,0.473347
929.0,0.473051
930.0,0.472710
931.0,0.472379
932.0,0.472069
933.0,0.471778
934.0,0.471508
935.0,0.471256
936.0,0.471022
937.0,0.470806
938.0,0.470607
939.0,0.470425
940.0,0.470257
1005.0,0.462212
1006.0,0.462593
1007.0,0.463206
1008.0,0.463800
1009.0,0.464182
1010.0,0.464357
1011.0,0.464383
1012.0,0.464318
1013.0,0.464219
1014.0,0.464144
1015.0,0.464152
1016.0,0.464279
1017.0,0.464512
1018.0,0.464833
1019.0,0.465206
1020.0,0.465563
1021.0,0.465832
1022.0,0.465981
1023.0,0.466074
1024.0,0.466185
1025.0,0.466347
1026.0,0.466494
1027.0,0.466546
1028.0,0.466475
1029.0,0.466368
1030.0,0.466325
1031.0,0.466403
1032.0,0.466556
1033.0,0.466723
1034.0,0.466867
1035.0,0.466996
1036.0,0.467127
1037.0,0.467266
1038.0,0.467401
1039.0,0.467516
1040.0,0.467596
1041.0,0.467632
1042.0,0.467615
1043.0,0.467548
1044.0,0.467463
1045.0,0.467395
1046.0,0.467368
1047.0,0.467387
1048.0,0.467452
1049.0,0.467547
1050.0,0.467624
1051.0,0.467626
1052.0,0.467535
1053.0,0.467405
1054.0,0.467304
1055.0,0.467272
1056.0,0.467291
1057.0,0.467336
1058.0,0.467384
1059.0,0.467422
1060.0,0.467434
1061.0,0.467417
1062.0,0.467388
1063.0,0.467365
1064.0,0.467361
1065.0,0.467367
1066.0,0.467375
1067.0,0.467379
1068.0,0.467389
1069.0,0.467416
1070.0,0.467462
1071.0,0.467512
1072.0,0.467548
1073.0,0.467554
1074.0,0.467513
1075.0,0.467409
1076.0,0.467246
1077.0,0.467068
1078.0,0.466926
1079.0,0.466853
1080.0,0.466842
1081.0,0.466877
1082.0,0.466941
1083.0,0.466998
1084.0,0.467017
1085.0,0.466978
1086.0,0.466909
1087.0,0.466843
1088.0,0.466797
1089.0,0.466760
1090.0,0.466717
1091.0,0.466654
1092.0,0.466549
1093.0,0.466385
1094.0,0.466157
1095.0,0.465890
1096.0,0.465617
1097.0,0.465366
1098.0,0.465165
1099.0,0.465041
1100.0,0.464996
1101.0,0.464984
1102.0,0.464950
1103.0,0.464864
1104.0,0.464749
1105.0,0.464636
1106.0,0.464548
1107.0,0.464484
1108.0,0.464447
1109.0,0.464426
1110.0,0.464399
1111.0,0.464340
1112.0,0.464231
1113.0,0.464075
1114.0,0.463877
1115.0,0.463650
1116.0,0.463425
1117.0,0.463240
1118.0,0.463102
1119.0,0.462968
1120.0,0.462786
1121.0,0.462525
1122.0,0.462200
1123.0,0.461831
1124.0,0.461437
1125.0,0.461027
1126.0,0.460611
1127.0,0.460190
1128.0,0.459749
1129.0,0.459274
1130.0,0.458757
1131.0,0.458212
1132.0,0.457655
1133.0,0.457084
1134.0,0.456446
1135.0,0.455686
1136.0,0.454786
1137.0,0.453818
1138.0,0.452863
1139.0,0.451970
1140.0,0.451116
1141.0,0.450268
1142.0,0.449412
1143.0,0.448573
1144.0,0.447786
1145.0,0.447065
1146.0,0.446387
1147.0,0.445720
1148.0,0.445041
1149.0,0.444339
1150.0,0.443606
1151.0,0.442841
1152.0,0.442069
1153.0,0.441316
1154.0,0.440608
1155.0,0.439972
1156.0,0.439434
1157.0,0.439003
1158.0,0.438647
1159.0,0.438329
1160.0,0.438024
1161.0,0.437730
1162.0,0.437451
1163.0,0.437190
1164.0,0.436956
1165.0,0.436756
1166.0,0.436589
1167.0,0.436433
1168.0,0.436266
1169.0,0.436067
1170.0,0.435824
1171.0,0.435527
1172.0,0.435185
1173.0,0.434850
1174.0,0.434579
1175.0,0.434405
1176.0,0.434300
1177.0,0.434228
1178.0,0.434161
1179.0,0.434079
1180.0,0.433967
1181.0,0.433811
1182.0,0.433610
1183.0,0.433361
1184.0,0.433075
1185.0,0.432789
1186.0,0.432544
1187.0,0.432361
1188.0,0.432218
1189.0,0.432085
1190.0,0.431948
1191.0,0.431822
1192.0,0.431723
1193.0,0.431668
1194.0,0.431662
1195.0,0.431710
1196.0,0.431798
1197.0,0.431876
1198.0,0.431888
1199.0,0.431807
1200.0,0.431668
1201.0,0.431516
1202.0,0.431384
1203.0,0.431281
1204.0,0.431215
1205.0,0.431194
1206.0,0.431228
1207.0,0.431331
1208.0,0.431492
1209.0,0.431664
1210.0,0.431789
1211.0,0.431843
1212.0,0.431865
1213.0,0.431902
1214.0,0.431985
1215.0,0.432105
1216.0,0.432245
1217.0,0.432393
1218.0,0.432539
1219.0,0.432677
1220.0,0.432805
1221.0,0.432944
1222.0,0.433116
1223.0,0.433333
1224.0,0.433588
1225.0,0.433872
1226.0,0.434171
1227.0,0.434466
1228.0,0.434735
1229.0,0.434974
1230.0,0.435207
1231.0,0.435467
1232.0,0.435762
1233.0,0.436055
1234.0,0.436301
1235.0,0.436476
1236.0,0.436598
1237.0,0.436695
1238.0,0.436781
1239.0,0.436849
1240.0,0.436887
1241.0,0.436898
1242.0,0.436909
1243.0,0.436954
1244.0,0.437050
1245.0,0.437182
1246.0,0.437331
1247.0,0.437472
1248.0,0.437574
1249.0,0.437604
1250.0,0.437554
1251.0,0.437480
1252.0,0.437443
1253.0,0.437477
1254.0,0.437558
1255.0,0.437650
1256.0,0.437730
1257.0,0.437788
1258.0,0.437818
1259.0,0.437820
1260.0,0.437808
1261.0,0.437798
1262.0,0.437800
1263.0,0.437804
1264.0,0.437801
1265.0,0.437781
1266.0,0.437741
1267.0,0.437677
1268.0,0.437594
1269.0,0.437513
1270.0,0.437457
1271.0,0.437433
1272.0,0.437413
1273.0,0.437362
1274.0,0.437266
1275.0,0.437150
1276.0,0.437048
1277.0,0.436975
1278.0,0.436914
1279.0,0.436843
1280.0,0.436744
1281.0,0.436614
1282.0,0.436451
1283.0,0.436260
1284.0,0.436060
1285.0,0.435870
1286.0,0.435702
1287.0,0.435543
1288.0,0.435377
1289.0,0.435190
1290.0,0.434974
1291.0,0.434718
1292.0,0.434423
1293.0,0.434109
1294.0,0.433800
1295.0,0.433509
1296.0,0.433221
1297.0,0.432919
1298.0,0.432584
1299.0,0.432203
1300.0,0.431757
1301.0,0.431249
1302.0,0.430723
1303.0,0.430227
1304.0,0.429786
1305.0,0.429369
1306.0,0.428942
1307.0,0.428478
1308.0,0.427975
1309.0,0.427435
1310.0,0.426861
1311.0,0.426260
1312.0,0.425641
1313.0,0.425007
1314.0,0.424345
1315.0,0.423640
1316.0,0.422886
1317.0,0.422095
1318.0,0.421281
1319.0,0.420453
1320.0,0.419613
1321.0,0.418758
1322.0,0.417893
1323.0,0.417027
1324.0,0.416169
1325.0,0.415323
1326.0,0.414472
1327.0,0.413601
1328.0,0.412701
1329.0,0.411784
1330.0,0.410865
1331.0,0.409952
1332.0,0.409031
1333.0,0.408086
1334.0,0.407112
1335.0,0.406120
1336.0,0.405126
1337.0,0.404134
1338.0,0.403129
1339.0,0.402094
1340.0,0.401026
1341.0,0.399952
1342.0,0.398903
1343.0,0.397900
1344.0,0.396936
1345.0,0.396000
1346.0,0.395081
1347.0,0.394174
1348.0,0.393268
1349.0,0.392360
1350.0,0.391457
1351.0,0.390566
1352.0,0.389687
1353.0,0.388798
1354.0,0.387877
1355.0,0.386907
1356.0,0.385884
1357.0,0.384804
1358.0,0.383678
1359.0,0.382538
1360.0,0.381422
1361.0,0.380340
1362.0,0.379239
1363.0,0.378061
1364.0,0.376764
1365.0,0.375352
1366.0,0.373832
1367.0,0.372211
1368.0,0.370492
1369.0,0.368679
1370.0,0.366771
1371.0,0.364760
1372.0,0.362636
1373.0,0.360387
1374.0,0.357988
1375.0,0.355415
1376.0,0.352645
1377.0,0.349653
1378.0,0.346414
1379.0,0.342919
1380.0,0.339187
1381.0,0.335242
1382.0,0.331108
1383.0,0.326806
1384.0,0.322358
1385.0,0.317774
1386.0,0.313041
1387.0,0.308142
1388.0,0.303072
1389.0,0.297852
1390.0,0.292505
1391.0,0.287064
1392.0,0.281579
1393.0,0.276100
1394.0,0.270667
1395.0,0.265290
1396.0,0.259976
1397.0,0.254732
1398.0,0.249567
1399.0,0.244494
1400.0,0.239524
1401.0,0.234680
1402.0,0.229983
1403.0,0.225449
1404.0,0.221081
1405.0,0.216879
1406.0,0.212842
1407.0,0.208973
1408.0,0.205270
1409.0,0.201736
1410.0,0.198379
1411.0,0.195208
1412.0,0.192227
1413.0,0.189419
1414.0,0.186770
1415.0,0.184269
1416.0,0.181925
1417.0,0.179750
1418.0,0.177739
1419.0,0.175866
1420.0,0.174096
1421.0,0.172409
1422.0,0.170816
1423.0,0.169329
1424.0,0.167956
1425.0,0.166687
1426.0,0.165514
1427.0,0.164429
1428.0,0.163421
1429.0,0.162484
1430.0,0.161611
1431.0,0.160797
1432.0,0.160038
1433.0,0.159335
1434.0,0.158705
1435.0,0.158163
1436.0,0.157714
1437.0,0.157332
1438.0,0.156988
1439.0,0.156663
1440.0,0.156362
1441.0,0.156094
1442.0,0.155863
1443.0,0.155660
1444.0,0.155476
1445.0,0.155309
1446.0,0.155178
1447.0,0.155100
1448.0,0.155085
1449.0,0.155118
1450.0,0.155181
1451.0,0.155259
1452.0,0.155347
1453.0,0.155443
1454.0,0.155550
1455.0,0.155685
1456.0,0.155867
1457.0,0.156107
1458.0,0.156401
1459.0,0.156741
1460.0,0.157122
1461.0,0.157544
1462.0,0.158007
1463.0,0.158512
1464.0,0.159056
1465.0,0.159636
1466.0,0.160252
1467.0,0.160910
1468.0,0.161618
1469.0,0.162382
1470.0,0.163201
1471.0,0.164078
1472.0,0.165008
1473.0,0.165979
1474.0,0.166976
1475.0,0.167991
1476.0,0.169024
1477.0,0.170080
1478.0,0.171163
1479.0,0.172276
1480.0,0.173425
1481.0,0.174612
1482.0,0.175836
1483.0,0.177095
1484.0,0.178385
1485.0,0.179686
1486.0,0.180982
1487.0,0.182262
1488.0,0.183537
1489.0,0.184820
1490.0,0.186119
1491.0,0.187429
1492.0,0.188745
1493.0,0.190061
1494.0,0.191377
1495.0,0.192691
1496.0,0.194006
1497.0,0.195334
1498.0,0.196689
1499.0,0.198076
1500.0,0.199486
1501.0,0.200906
1502.0,0.202324
1503.0,0.203738
1504.0,0.205142
1505.0,0.206535
1506.0,0.207919
1507.0,0.209293
1508.0,0.210658
1509.0,0.212006
1510.0,0.213331
1511.0,0.214634
1512.0,0.215933
1513.0,0.217251
1514.0,0.218599
1515.0,0.219969
1516.0,0.221353
1517.0,0.222737
1518.0,0.224106
1519.0,0.225442
1520.0,0.226736
1521.0,0.227999
1522.0,0.229243
1523.0,0.230477
1524.0,0.231699
1525.0,0.232905
1526.0,0.234098
1527.0,0.235291
1528.0,0.236498
1529.0,0.237725
1530.0,0.238958
1531.0,0.240180
1532.0,0.241379
1533.0,0.242553
1534.0,0.243704
1535.0,0.244832
1536.0,0.245939
1537.0,0.247027
1538.0,0.248098
1539.0,0.249155
1540.0,0.250198
1541.0,0.251230
1542.0,0.252255
1543.0,0.253276
1544.0,0.254298
1545.0,0.255329
1546.0,0.256375
1547.0,0.257439
1548.0,0.258509
1549.0,0.259574
1550.0,0.260620
1551.0,0.261632
1552.0,0.262594
1553.0,0.263503
1554.0,0.264388
1555.0,0.265280
1556.0,0.266199
1557.0,0.267136
1558.0,0.268077
1559.0,0.269011
1560.0,0.269931
1561.0,0.270833
1562.0,0.271713
1563.0,0.272581
1564.0,0.273447
1565.0,0.274314
1566.0,0.275174
1567.0,0.276013
1568.0,0.276828
1569.0,0.277630
1570.0,0.278433
1571.0,0.279242
1572.0,0.280047
1573.0,0.280833
1574.0,0.281593
1575.0,0.282334
1576.0,0.283066
1577.0,0.283796
1578.0,0.284527
1579.0,0.285262
1580.0,0.286000
1581.0,0.286735
1582.0,0.287461
1583.0,0.288173
1584.0,0.288873
1585.0,0.289564
1586.0,0.290248
1587.0,0.290931
1588.0,0.291615
1589.0,0.292302
1590.0,0.292982
1591.0,0.293644
1592.0,0.294283
1593.0,0.294912
1594.0,0.295541
1595.0,0.296176
1596.0,0.296807
1597.0,0.297421
1598.0,0.298011
1599.0,0.298591
1600.0,0.299174
1601.0,0.299770
1602.0,0.300375
1603.0,0.300982
1604.0,0.301586
1605.0,0.302179
1606.0,0.302750
1607.0,0.303295
1608.0,0.303811
1609.0,0.304297
1610.0,0.304759
1611.0,0.305208
1612.0,0.305661
1613.0,0.306124
1614.0,0.306591
1615.0,0.307054
1616.0,0.307508
1617.0,0.307956
1618.0,0.308404
1619.0,0.308854
1620.0,0.309300
1621.0,0.309738
1622.0,0.310163
1623.0,0.310579
1624.0,0.310990
1625.0,0.311398
1626.0,0.311803
1627.0,0.312204
1628.0,0.312600
1629.0,0.312989
1630.0,0.313370
1631.0,0.313742
1632.0,0.314100
1633.0,0.314439
1634.0,0.314755
1635.0,0.315036
1636.0,0.315274
1637.0,0.315464
1638.0,0.315618
1639.0,0.315752
1640.0,0.315878
1641.0,0.316003
1642.0,0.316133
1643.0,0.316269
1644.0,0.316397
1645.0,0.316499
1646.0,0.316562
1647.0,0.316578
1648.0,0.316540
1649.0,0.316455
1650.0,0.316348
1651.0,0.316249
1652.0,0.316175
1653.0,0.316105
1654.0,0.316017
1655.0,0.315894
1656.0,0.315735
1657.0,0.315543
1658.0,0.315327
1659.0,0.315118
1660.0,0.314948
1661.0,0.314828
1662.0,0.314733
1663.0,0.314626
1664.0,0.314489
1665.0,0.314331
1666.0,0.314166
1667.0,0.314009
1668.0,0.313872
1669.0,0.313767
1670.0,0.313695
1671.0,0.313635
1672.0,0.313565
1673.0,0.313471
1674.0,0.313371
1675.0,0.313283
1676.0,0.313217
1677.0,0.313159
1678.0,0.313093
1679.0,0.313003
1680.0,0.312887
1681.0,0.312739
1682.0,0.312564
1683.0,0.312380
1684.0,0.312211
1685.0,0.312067
1686.0,0.311932
1687.0,0.311784
1688.0,0.311614
1689.0,0.311424
1690.0,0.311222
1691.0,0.311012
1692.0,0.310787
1693.0,0.310540
1694.0,0.310269
1695.0,0.309988
1696.0,0.309710
1697.0,0.309445
1698.0,0.309183
1699.0,0.308914
1700.0,0.308630
1701.0,0.308324
1702.0,0.307993
1703.0,0.307634
1704.0,0.307254
1705.0,0.306858
1706.0,0.306450
1707.0,0.306022
1708.0,0.305566
1709.0,0.305082
1710.0,0.304583
1711.0,0.304085
1712.0,0.303599
1713.0,0.303113
1714.0,0.302619
1715.0,0.302110
1716.0,0.301590
1717.0,0.301067
1718.0,0.300541
1719.0,0.300007
1720.0,0.299455
1721.0,0.298885
1722.0,0.298305
1723.0,0.297729
1724.0,0.297163
1725.0,0.296602
1726.0,0.296038
1727.0,0.295477
1728.0,0.294953
1729.0,0.294503
1730.0,0.294146
1731.0,0.293858
1732.0,0.293611
1733.0,0.293384
1734.0,0.293180
1735.0,0.293003
1736.0,0.292844
1737.0,0.292662
1738.0,0.292410
1739.0,0.292068
1740.0,0.291670
1741.0,0.291261
1742.0,0.290863
1743.0,0.290462
1744.0,0.290035
1745.0,0.289570
1746.0,0.289080
1747.0,0.288581
1748.0,0.288077
1749.0,0.287549
1750.0,0.286978
1751.0,0.286356
1752.0,0.285712
1753.0,0.285079
1754.0,0.284472
1755.0,0.283874
1756.0,0.283259
1757.0,0.282612
1758.0,0.281934
